density=2700.0 thermal_conduction=203.5 specific_heat=903.0 heat_transfer=8.7 temperature_air=300.0
number_edges=100
+0.500000 +0.000000 +0.499013 +0.031395 1 +1.0e+5
+0.499013 +0.031395 +0.496057 +0.062667 1 +1.0e+5
+0.496057 +0.062667 +0.491144 +0.093691 1 +1.0e+5
+0.491144 +0.093691 +0.484292 +0.124345 1 +1.0e+5
+0.484292 +0.124345 +0.475528 +0.154508 1 +1.0e+5
+0.475528 +0.154508 +0.464888 +0.184062 1 +1.0e+5
+0.464888 +0.184062 +0.452414 +0.212890 1 +1.0e+5
+0.452414 +0.212890 +0.438153 +0.240877 1 +1.0e+5
+0.438153 +0.240877 +0.422164 +0.267913 1 +1.0e+5
+0.422164 +0.267913 +0.404508 +0.293893 1 +1.0e+5
+0.404508 +0.293893 +0.385257 +0.318712 1 +1.0e+5
+0.385257 +0.318712 +0.364484 +0.342274 1 +1.0e+5
+0.364484 +0.342274 +0.342274 +0.364484 1 +1.0e+5
+0.342274 +0.364484 +0.318712 +0.385257 1 +1.0e+5
+0.318712 +0.385257 +0.293893 +0.404508 1 +1.0e+5
+0.293893 +0.404508 +0.267913 +0.422164 1 +1.0e+5
+0.267913 +0.422164 +0.240877 +0.438153 1 +1.0e+5
+0.240877 +0.438153 +0.212890 +0.452414 1 +1.0e+5
+0.212890 +0.452414 +0.184062 +0.464888 1 +1.0e+5
+0.184062 +0.464888 +0.154508 +0.475528 1 +1.0e+5
+0.154508 +0.475528 +0.124345 +0.484292 1 +1.0e+5
+0.124345 +0.484292 +0.093691 +0.491144 1 +1.0e+5
+0.093691 +0.491144 +0.062667 +0.496057 1 +1.0e+5
+0.062667 +0.496057 +0.031395 +0.499013 1 +1.0e+5
+0.031395 +0.499013 -0.000000 +0.500000 1 +1.0e+5
-0.000000 +0.500000 -0.031395 +0.499013 1 +1.0e+5
-0.031395 +0.499013 -0.062667 +0.496057 1 +1.0e+5
-0.062667 +0.496057 -0.093691 +0.491144 1 +1.0e+5
-0.093691 +0.491144 -0.124345 +0.484292 1 +1.0e+5
-0.124345 +0.484292 -0.154508 +0.475528 1 +1.0e+5
-0.154508 +0.475528 -0.184062 +0.464888 1 +1.0e+5
-0.184062 +0.464888 -0.212890 +0.452414 1 +1.0e+5
-0.212890 +0.452414 -0.240877 +0.438153 1 +1.0e+5
-0.240877 +0.438153 -0.267913 +0.422164 1 +1.0e+5
-0.267913 +0.422164 -0.293893 +0.404508 1 +1.0e+5
-0.293893 +0.404508 -0.318712 +0.385257 1 +1.0e+5
-0.318712 +0.385257 -0.342274 +0.364484 1 +1.0e+5
-0.342274 +0.364484 -0.364484 +0.342274 1 +1.0e+5
-0.364484 +0.342274 -0.385257 +0.318712 1 +1.0e+5
-0.385257 +0.318712 -0.404508 +0.293893 1 +1.0e+5
-0.404508 +0.293893 -0.422164 +0.267913 1 +1.0e+5
-0.422164 +0.267913 -0.438153 +0.240877 1 +1.0e+5
-0.438153 +0.240877 -0.452414 +0.212890 1 +1.0e+5
-0.452414 +0.212890 -0.464888 +0.184062 1 +1.0e+5
-0.464888 +0.184062 -0.475528 +0.154508 1 +1.0e+5
-0.475528 +0.154508 -0.484292 +0.124345 1 +1.0e+5
-0.484292 +0.124345 -0.491144 +0.093691 1 +1.0e+5
-0.491144 +0.093691 -0.496057 +0.062667 1 +1.0e+5
-0.496057 +0.062667 -0.499013 +0.031395 1 +1.0e+5
-0.499013 +0.031395 -0.500000 -0.000000 1 +1.0e+5
-0.500000 -0.000000 -0.499013 -0.031395 1 +1.0e+5
-0.499013 -0.031395 -0.496057 -0.062667 1 +1.0e+5
-0.496057 -0.062667 -0.491144 -0.093691 1 +1.0e+5
-0.491144 -0.093691 -0.484292 -0.124345 1 +1.0e+5
-0.484292 -0.124345 -0.475528 -0.154508 1 +1.0e+5
-0.475528 -0.154508 -0.464888 -0.184062 1 +1.0e+5
-0.464888 -0.184062 -0.452414 -0.212890 1 +1.0e+5
-0.452414 -0.212890 -0.438153 -0.240877 1 +1.0e+5
-0.438153 -0.240877 -0.422164 -0.267913 1 +1.0e+5
-0.422164 -0.267913 -0.404508 -0.293893 1 +1.0e+5
-0.404508 -0.293893 -0.385257 -0.318712 1 +1.0e+5
-0.385257 -0.318712 -0.364484 -0.342274 1 +1.0e+5
-0.364484 -0.342274 -0.342274 -0.364484 1 +1.0e+5
-0.342274 -0.364484 -0.318712 -0.385257 1 +1.0e+5
-0.318712 -0.385257 -0.293893 -0.404508 1 +1.0e+5
-0.293893 -0.404508 -0.267913 -0.422164 1 +1.0e+5
-0.267913 -0.422164 -0.240877 -0.438153 1 +1.0e+5
-0.240877 -0.438153 -0.212890 -0.452414 1 +1.0e+5
-0.212890 -0.452414 -0.184062 -0.464888 1 +1.0e+5
-0.184062 -0.464888 -0.154508 -0.475528 1 +1.0e+5
-0.154508 -0.475528 -0.124345 -0.484292 1 +1.0e+5
-0.124345 -0.484292 -0.093691 -0.491144 1 +1.0e+5
-0.093691 -0.491144 -0.062667 -0.496057 1 +1.0e+5
-0.062667 -0.496057 -0.031395 -0.499013 1 +1.0e+5
-0.031395 -0.499013 -0.000000 -0.500000 1 +1.0e+5
-0.000000 -0.500000 +0.031395 -0.499013 1 +1.0e+5
+0.031395 -0.499013 +0.062667 -0.496057 1 +1.0e+5
+0.062667 -0.496057 +0.093691 -0.491144 1 +1.0e+5
+0.093691 -0.491144 +0.124345 -0.484292 1 +1.0e+5
+0.124345 -0.484292 +0.154508 -0.475528 1 +1.0e+5
+0.154508 -0.475528 +0.184062 -0.464888 1 +1.0e+5
+0.184062 -0.464888 +0.212890 -0.452414 1 +1.0e+5
+0.212890 -0.452414 +0.240877 -0.438153 1 +1.0e+5
+0.240877 -0.438153 +0.267913 -0.422164 1 +1.0e+5
+0.267913 -0.422164 +0.293893 -0.404508 1 +1.0e+5
+0.293893 -0.404508 +0.318712 -0.385257 1 +1.0e+5
+0.318712 -0.385257 +0.342274 -0.364484 1 +1.0e+5
+0.342274 -0.364484 +0.364484 -0.342274 1 +1.0e+5
+0.364484 -0.342274 +0.385257 -0.318712 1 +1.0e+5
+0.385257 -0.318712 +0.404508 -0.293893 1 +1.0e+5
+0.404508 -0.293893 +0.422164 -0.267913 1 +1.0e+5
+0.422164 -0.267913 +0.438153 -0.240877 1 +1.0e+5
+0.438153 -0.240877 +0.452414 -0.212890 1 +1.0e+5
+0.452414 -0.212890 +0.464888 -0.184062 1 +1.0e+5
+0.464888 -0.184062 +0.475528 -0.154508 1 +1.0e+5
+0.475528 -0.154508 +0.484292 -0.124345 1 +1.0e+5
+0.484292 -0.124345 +0.491144 -0.093691 1 +1.0e+5
+0.491144 -0.093691 +0.496057 -0.062667 1 +1.0e+5
+0.496057 -0.062667 +0.499013 -0.031395 1 +1.0e+5
+0.499013 -0.031395 +0.500000 -0.000000 1 +1.0e+5
temperature_initial=500.0
number_heat_source=1 events=1
01 0.000 0.000 000.0 1000.0 +1.0e+7

